 B  pb nrl nc  
 atom 5.69p26-MAR-19   Improved Troullier - Martins potential
 2s(  2.00)  rc= 1.392p(  1.00)  rc= 1.39                              
   2  0  991  0.495750435333E-03  0.125000000000E-01   3.00000000000     nl nls nr a b zion 
 Radial grid follows
  0.623577282709E-05  0.125499820205E-04  0.189436141883E-04  0.254176683484E-04
  0.319731560851E-04  0.386111017066E-04  0.453325424055E-04  0.521385284204E-04
  0.590301232006E-04  0.660084035718E-04  0.730744599045E-04  0.802293962844E-04
  0.874743306848E-04  0.948103951414E-04  0.102238735929E-03  0.109760513742E-03
  0.117376903872E-03  0.125089096397E-03  0.132898296361E-03  0.140805723969E-03
  0.148812614771E-03  0.156920219862E-03  0.165129806070E-03  0.173442656161E-03
  0.181860069034E-03  0.190383359926E-03  0.199013860620E-03  0.207752919649E-03
  0.216601902508E-03  0.225562191870E-03  0.234635187797E-03  0.243822307963E-03
  0.253124987876E-03  0.262544681096E-03  0.272082859472E-03  0.281741013362E-03
  0.291520651873E-03  0.301423303092E-03  0.311450514331E-03  0.321603852360E-03
  0.331884903659E-03  0.342295274664E-03  0.352836592016E-03  0.363510502817E-03
  0.374318674888E-03  0.385262797028E-03  0.396344579278E-03  0.407565753189E-03
  0.418928072092E-03  0.430433311373E-03  0.442083268749E-03  0.453879764549E-03
  0.465824642000E-03  0.477919767513E-03  0.490167030976E-03  0.502568346049E-03
  0.515125650462E-03  0.527840906321E-03  0.540716100410E-03  0.553753244503E-03
  0.566954375682E-03  0.580321556649E-03  0.593856876054E-03  0.607562448819E-03
  0.621440416466E-03  0.635492947457E-03  0.649722237528E-03  0.664130510035E-03
  0.678720016299E-03  0.693493035961E-03  0.708451877335E-03  0.723598877770E-03
  0.738936404016E-03  0.754466852592E-03  0.770192650164E-03  0.786116253918E-03
  0.802240151950E-03  0.818566863653E-03  0.835098940107E-03  0.851838964484E-03
  0.868789552446E-03  0.885953352558E-03  0.903333046697E-03  0.920931350477E-03
  0.938751013668E-03  0.956794820630E-03  0.975065590742E-03  0.993566178852E-03
  0.101229947571E-02  0.103126840844E-02  0.105047594097E-02  0.106992507451E-02
  0.108961884804E-02  0.110956033875E-02  0.112975266253E-02  0.115019897447E-02
  0.117090246936E-02  0.119186638216E-02  0.121309398851E-02  0.123458860529E-02
  0.125635359106E-02  0.127839234665E-02  0.130070831566E-02  0.132330498501E-02
  0.134618588546E-02  0.136935459221E-02  0.139281472542E-02  0.141656995078E-02
  0.144062398008E-02  0.146498057183E-02  0.148964353179E-02  0.151461671359E-02
  0.153990401936E-02  0.156550940027E-02  0.159143685722E-02  0.161769044144E-02
  0.164427425509E-02  0.167119245195E-02  0.169844923805E-02  0.172604887232E-02
  0.175399566724E-02  0.178229398957E-02  0.181094826098E-02  0.183996295875E-02
  0.186934261649E-02  0.189909182483E-02  0.192921523214E-02  0.195971754528E-02
  0.199060353028E-02  0.202187801315E-02  0.205354588059E-02  0.208561208076E-02
  0.211808162408E-02  0.215095958397E-02  0.218425109769E-02  0.221796136711E-02
  0.225209565951E-02  0.228665930845E-02  0.232165771458E-02  0.235709634647E-02
  0.239298074146E-02  0.242931650659E-02  0.246610931937E-02  0.250336492876E-02
  0.254108915603E-02  0.257928789567E-02  0.261796711630E-02  0.265713286164E-02
  0.269679125140E-02  0.273694848230E-02  0.277761082898E-02  0.281878464502E-02
  0.286047636391E-02  0.290269250006E-02  0.294543964984E-02  0.298872449257E-02
  0.303255379159E-02  0.307693439533E-02  0.312187323834E-02  0.316737734241E-02
  0.321345381765E-02  0.326010986360E-02  0.330735277037E-02  0.335518991974E-02
  0.340362878639E-02  0.345267693897E-02  0.350234204135E-02  0.355263185383E-02
  0.360355423427E-02  0.365511713941E-02  0.370732862605E-02  0.376019685234E-02
  0.381373007906E-02  0.386793667088E-02  0.392282509768E-02  0.397840393590E-02
  0.403468186984E-02  0.409166769305E-02  0.414937030968E-02  0.420779873587E-02
  0.426696210119E-02  0.432686965003E-02  0.438753074307E-02  0.444895485873E-02
  0.451115159466E-02  0.457413066921E-02  0.463790192300E-02  0.470247532042E-02
  0.476786095118E-02  0.483406903194E-02  0.490110990783E-02  0.496899405413E-02
  0.503773207787E-02  0.510733471951E-02  0.517781285461E-02  0.524917749551E-02
  0.532143979310E-02  0.539461103849E-02  0.546870266484E-02  0.554372624913E-02
  0.561969351394E-02  0.569661632930E-02  0.577450671457E-02  0.585337684028E-02
  0.593323903004E-02  0.601410576249E-02  0.609598967321E-02  0.617890355673E-02
  0.626286036852E-02  0.634787322700E-02  0.643395541560E-02  0.652112038484E-02
  0.660938175441E-02  0.669875331535E-02  0.678924903214E-02  0.688088304491E-02
  0.697366967168E-02  0.706762341053E-02  0.716275894194E-02  0.725909113101E-02
  0.735663502986E-02  0.745540587991E-02  0.755541911431E-02  0.765669036034E-02
  0.775923544183E-02  0.786307038165E-02  0.796821140423E-02  0.807467493807E-02
  0.818247761832E-02  0.829163628935E-02  0.840216800743E-02  0.851409004338E-02
  0.862741988523E-02  0.874217524100E-02  0.885837404146E-02  0.897603444289E-02
  0.909517482999E-02  0.921581381867E-02  0.933797025902E-02  0.946166323824E-02
  0.958691208360E-02  0.971373636550E-02  0.984215590048E-02  0.997219075435E-02
  0.101038612453E-01  0.102371879472E-01  0.103721916925E-01  0.105088935759E-01
  0.106473149574E-01  0.107874774654E-01  0.109294030008E-01  0.110731137396E-01
  0.112186321370E-01  0.113659809306E-01  0.115151831437E-01  0.116662620897E-01
  0.118192413749E-01  0.119741449026E-01  0.121309968768E-01  0.122898218060E-01
  0.124506445069E-01  0.126134901083E-01  0.127783840552E-01  0.129453521126E-01
  0.131144203697E-01  0.132856152436E-01  0.134589634840E-01  0.136344921768E-01
  0.138122287487E-01  0.139922009715E-01  0.141744369662E-01  0.143589652075E-01
  0.145458145284E-01  0.147350141244E-01  0.149265935583E-01  0.151205827649E-01
  0.153170120553E-01  0.155159121220E-01  0.157173140436E-01  0.159212492894E-01
  0.161277497249E-01  0.163368476161E-01  0.165485756350E-01  0.167629668645E-01
  0.169800548038E-01  0.171998733731E-01  0.174224569196E-01  0.176478402225E-01
  0.178760584984E-01  0.181071474068E-01  0.183411430558E-01  0.185780820078E-01
  0.188180012849E-01  0.190609383749E-01  0.193069312374E-01  0.195560183092E-01
  0.198082385107E-01  0.200636312517E-01  0.203222364380E-01  0.205840944770E-01
  0.208492462848E-01  0.211177332916E-01  0.213895974493E-01  0.216648812371E-01
  0.219436276687E-01  0.222258802988E-01  0.225116832299E-01  0.228010811194E-01
  0.230941191861E-01  0.233908432180E-01  0.236912995788E-01  0.239955352153E-01
  0.243035976650E-01  0.246155350633E-01  0.249313961511E-01  0.252512302822E-01
  0.255750874315E-01  0.259030182022E-01  0.262350738343E-01  0.265713062120E-01
  0.269117678724E-01  0.272565120133E-01  0.276055925016E-01  0.279590638820E-01
  0.283169813850E-01  0.286794009359E-01  0.290463791636E-01  0.294179734092E-01
  0.297942417350E-01  0.301752429337E-01  0.305610365374E-01  0.309516828274E-01
  0.313472428428E-01  0.317477783906E-01  0.321533520555E-01  0.325640272090E-01
  0.329798680200E-01  0.334009394646E-01  0.338273073359E-01  0.342590382548E-01
  0.346961996801E-01  0.351388599192E-01  0.355870881388E-01  0.360409543752E-01
  0.365005295461E-01  0.369658854611E-01  0.374370948328E-01  0.379142312888E-01
  0.383973693826E-01  0.388865846055E-01  0.393819533984E-01  0.398835531636E-01
  0.403914622772E-01  0.409057601009E-01  0.414265269949E-01  0.419538443300E-01
  0.424877945007E-01  0.430284609377E-01  0.435759281213E-01  0.441302815944E-01
  0.446916079757E-01  0.452599949737E-01  0.458355314000E-01  0.464183071834E-01
  0.470084133838E-01  0.476059422063E-01  0.482109870163E-01  0.488236423530E-01
  0.494440039452E-01  0.500721687256E-01  0.507082348463E-01  0.513523016938E-01
  0.520044699050E-01  0.526648413825E-01  0.533335193105E-01  0.540106081715E-01
  0.546962137619E-01  0.553904432089E-01  0.560934049875E-01  0.568052089367E-01
  0.575259662774E-01  0.582557896294E-01  0.589947930290E-01  0.597430919471E-01
  0.605008033069E-01  0.612680455023E-01  0.620449384164E-01  0.628316034405E-01
  0.636281634924E-01  0.644347430363E-01  0.652514681020E-01  0.660784663043E-01
  0.669158668634E-01  0.677638006249E-01  0.686224000801E-01  0.694917993869E-01
  0.703721343908E-01  0.712635426459E-01  0.721661634365E-01  0.730801377990E-01
  0.740056085437E-01  0.749427202773E-01  0.758916194255E-01  0.768524542556E-01
  0.778253749000E-01  0.788105333797E-01  0.798080836275E-01  0.808181815128E-01
  0.818409848654E-01  0.828766535004E-01  0.839253492431E-01  0.849872359544E-01
  0.860624795563E-01  0.871512480577E-01  0.882537115809E-01  0.893700423881E-01
  0.905004149083E-01  0.916450057645E-01  0.928039938012E-01  0.939775601129E-01
  0.951658880715E-01  0.963691633557E-01  0.975875739798E-01  0.988213103229E-01
  0.100070565159      0.101335533686      0.102616413559      0.103913404917    
  0.105226710418      0.106556535268      0.107903087257      0.109266576783    
  0.110647216897      0.112045223326      0.113460814511      0.114894211641    
  0.116345638687      0.117815322438      0.119303492535      0.120810381507    
  0.122336224809      0.123881260858      0.125445731067      0.127029879889    
  0.128633954850      0.130258206591      0.131902888903      0.133568258772    
  0.135254576415      0.136962105323      0.138691112300      0.140441867508    
  0.142214644506      0.144009720293      0.145827375354      0.147667893701    
  0.149531562919      0.151418674210      0.153329522438      0.155264406179    
  0.157223627761      0.159207493317      0.161216312829      0.163250400180    
  0.165310073201      0.167395653719      0.169507467610      0.171645844850    
  0.173811119564      0.176003630082      0.178223718986      0.180471733172    
  0.182748023895      0.185052946830      0.187386862127      0.189750134465    
  0.192143133109      0.194566231970      0.197019809663      0.199504249565    
  0.202019939873      0.204567273670      0.207146648981      0.209758468840    
  0.212403141348      0.215081079742      0.217792702453      0.220538433180    
  0.223318700947      0.226133940178      0.228984590759      0.231871098110    
  0.234793913254      0.237753492887      0.240750299449      0.243784801197    
  0.246857472278      0.249968792803      0.253119248923      0.256309332902    
  0.259539543198      0.262810384538      0.266122367997      0.269476011080    
  0.272871837799      0.276310378761      0.279792171243      0.283317759283    
  0.286887693762      0.290502532488      0.294162840288      0.297869189093    
  0.301622158026      0.305422333497      0.309270309291      0.313166686663    
  0.317112074428      0.321107089062      0.325152354794      0.329248503705    
  0.333396175826      0.337596019240      0.341848690182      0.346154853138    
  0.350515180957      0.354930354947      0.359401064990      0.363928009643    
  0.368511896249      0.373153441051      0.377853369299      0.382612415367    
  0.387431322866      0.392310844759      0.397251743481      0.402254791059    
  0.407320769228      0.412450469558      0.417644693575      0.422904252887    
  0.428229969311      0.433622675001      0.439083212579      0.444612435263    
  0.450211207007      0.455880402631      0.461620907956      0.467433619950    
  0.473319446860      0.479279308358      0.485314135686      0.491424871796    
  0.497612471505      0.503877901636      0.510222141177      0.516646181428    
  0.523151026157      0.529737691761      0.536407207419      0.543160615256    
  0.549998970507      0.556923341678      0.563934810716      0.571034473177    
  0.578223438399      0.585502829671      0.592873784414      0.600337454354    
  0.607895005704      0.615547619348      0.623296491022      0.631142831503    
  0.639087866797      0.647132838332      0.655279003152      0.663527634112    
  0.671880020076      0.680337466123      0.688901293745      0.697572841057    
  0.706353463007      0.715244531585      0.724247436038      0.733363583089    
  0.742594397153      0.751941320565      0.761405813800      0.770989355704    
  0.780693443726      0.790519594149      0.800469342329      0.810544242934    
  0.820745870188      0.831075818116      0.841535700793      0.852127152598    
  0.862851828467      0.873711404151      0.884707576481      0.895842063632    
  0.907116605391      0.918532963426      0.930092921568      0.941798286083    
  0.953650885958      0.965652573187      0.977805223056      0.990110734444    
   1.00257103011       1.01518805700       1.02796378655       1.04090021500    
   1.05399936369       1.06726327938       1.08069403459       1.09429372791    
   1.10806448431       1.12200845550       1.13612782026       1.15042478477    
   1.16490158294       1.17956047683       1.19440375690       1.20943374245    
   1.22465278194       1.24006325339       1.25566756470       1.27146815409    
   1.28746749042       1.30366807363       1.32007243509       1.33668313802    
   1.35350277787       1.37053398274       1.38777941380       1.40524176568    
   1.42292376691       1.44082818033       1.45895780355       1.47731546935    
   1.49590404617       1.51472643849       1.53378558737       1.55308447083    
   1.57262610435       1.59241354137       1.61244987371       1.63273823208    
   1.65328178658       1.67408374719       1.69514736425       1.71647592900    
   1.73807277407       1.75994127400       1.78208484580       1.80450694945    
   1.82721108844       1.85020081035       1.87347970735       1.89705141684    
   1.92091962193       1.94508805208       1.96956048365       1.99434074053    
   2.01943269466       2.04484026672       2.07056742670       2.09661819451    
   2.12299664064       2.14970688678       2.17675310645       2.20413952569    
   2.23187042368       2.25995013342       2.28838304243       2.31717359341    
   2.34632628494       2.37584567218       2.40573636761       2.43600304171    
   2.46665042369       2.49768330229       2.52910652644       2.56092500610    
   2.59314371296       2.62576768126       2.65880200857       2.69225185657    
   2.72612245185       2.76041908678       2.79514712027       2.83031197864    
   2.86591915648       2.90197421748       2.93848279532       2.97545059454    
   3.01288339143       3.05078703494       3.08916744759       3.12803062640    
   3.16738264383       3.20722964870       3.24757786718       3.28843360378    
   3.32980324229       3.37169324678       3.41411016267       3.45706061768    
   3.50055132290       3.54458907386       3.58918075153       3.63433332345    
   3.68005384482       3.72634945954       3.77322740142       3.82069499521    
   3.86875965783       3.91742889948       3.96671032483       4.01661163420    
   4.06714062477       4.11830519180       4.17011332986       4.22257313407    
   4.27569280139       4.32948063187       4.38394502996       4.43909450585    
   4.49493767675       4.55148326827       4.60874011577       4.66671716575    
   4.72542347725       4.78486822324       4.84506069209       4.90601028899    
   4.96772653744       5.03021908073       5.09349768345       5.15757223300    
   5.22245274118       5.28814934568       5.35467231173       5.42203203370    
   5.49023903666       5.55930397810       5.62923764956       5.70005097832    
   5.77175502910       5.84436100581       5.91788025328       5.99232425904    
   6.06770465513       6.14403321987       6.22132187976       6.29958271131    
   6.37882794295       6.45906995689       6.54032129111       6.62259464130    
   6.70590286284       6.79025897281       6.87567615202       6.96216774709    
   7.04974727248       7.13842841270       7.22822502433       7.31915113830    
   7.41122096198       7.50444888148       7.59884946385       7.69443745937    
   7.79122780386       7.88923562100       7.98847622473       8.08896512158    
   8.19071801315       8.29375079853       8.39807957681       8.50372064958    
   8.61069052346       8.71900591271       8.82868374184       8.93974114822    
   9.05219548482       9.16606432283       9.28136545451       9.39811689588    
   9.51633688960       9.63604390778       9.75725665489       9.87999407067    
   10.0042753331       10.1301198613       10.2575473189       10.3865776165    
   10.5172309155       10.6495276307       10.7834884337       10.9191342562    
   11.0564862931       11.1955660059       11.3363951261       11.4789956587    
   11.6233898851       11.7696003672       11.9176499509       12.0675617690    
   12.2193592457       12.3730660996       12.5287063478       12.6863043092    
   12.8458846089       13.0074721818       13.1710922760       13.3367704577    
   13.5045326144       13.6744049593       13.8464140352       14.0205867189    
   14.1969502253       14.3755321115       14.5563602813       14.7394629895    
   14.9248688462       15.1126068215       15.3027062498       15.4951968346    
   15.6901086529       15.8874721600       16.0873181945       16.2896779826    
   16.4945831434       16.7020656940       16.9121580537       17.1248930500    
   17.3403039231       17.5584243315       17.7792883569       18.0029305097    
   18.2293857344       18.4586894153       18.6908773814       18.9259859125    
   19.1640517450       19.4051120770       19.6492045746       19.8963673780    
   20.1466391066       20.4000588661       20.6566662538       20.9165013650    
   21.1796047996       21.4460176680       21.7157815977       21.9889387400    
   22.2655317761       22.5456039244       22.8291989466       23.1163611550    
   23.4071354194       23.7015671737       23.9997024236       24.3015877533    
   24.6072703330       24.9167979262       25.2302188972       25.5475822188    
   25.8689374795       26.1943348917       26.5238252996       26.8574601866    
   27.1952916838       27.5373725781       27.8837563204       28.2344970339    
   28.5896495223       28.9492692792       29.3134124957       29.6821360701    
   30.0554976160       30.4335554721       30.8163687106       31.2039971468    
   31.5965013486       31.9939426454       32.3963831384       32.8038857095    
   33.2165140321       33.6343325799       34.0574066382       34.4858023129    
   34.9195865419       35.3588271049       35.8035926339       36.2539526246    
   36.7099774466       37.1717383548       37.6393075001       38.1127579413    
   38.5921636559       39.0775995521       39.5691414801       40.0668662445    
   40.5708516157       41.0811763425       41.5979201642       42.1211638229    
   42.6509890767       43.1874787117       43.7307165556       44.2807874904    
   44.8377774658       45.4017735126       45.9728637564       46.5511374311    
   47.1366848932       47.7295976357       48.3299683024       48.9378907024    
   49.5534598249       50.1767718537       50.8079241827       51.4470154307    
   52.0941454570       52.7494153770       53.4129275778       54.0847857348    
   54.7650948270       55.4539611542       56.1514923531       56.8577974143    
   57.5729866996       58.2971719586       59.0304663468       59.7729844430    
   60.5248422670       61.2861572982       62.0570484937       62.8376363067    
   63.6280427057       64.4283911933       65.2388068255       66.0594162315    
   66.8903476331       67.7317308652       68.5836973954       69.4463803453    
   70.3199145109       71.2044363837       72.1000841720       73.0069978226    
   73.9253190426       74.8551913216       75.7967599540       76.7501720618    
   77.7155766176       78.6931244678       79.6829683563       80.6852629481    
   81.7001648539       82.7278326542       83.7684269240       84.8221102585    
   85.8890472978       86.9694047528       88.0633514318       89.1710582661    
   90.2926983371       91.4284469033       92.5784814279       93.7429816060    
