 Ge pb nrl pcec
 atom 5.69p26-MAR-19   Improved Troullier - Martins potential
 4s(  2.00)  rc= 2.084p(  2.00)  rc= 2.084d(  0.00)  rc= 2.39          
   3  0 1140  0.774610055208E-04  0.125000000000E-01   4.00000000000       1.00000000000       0.00000000000     nl nls nr a b zion cfac rcfac
 Radial grid follows
  0.974339504232E-06  0.196093469070E-05  0.295993971692E-05  0.397151067944E-05
  0.499580563830E-05  0.603298464166E-05  0.708320975085E-05  0.814664506569E-05
  0.922345675010E-05  0.103138130581E-04  0.114178843601E-04  0.125358431694E-04
  0.136678641695E-04  0.148141242408E-04  0.159748024890E-04  0.171500802722E-04
  0.183401412300E-04  0.195451713120E-04  0.207653588064E-04  0.220008943701E-04
  0.232519710580E-04  0.245187843534E-04  0.258015321985E-04  0.271004150252E-04
  0.284156357865E-04  0.297473999885E-04  0.310959157219E-04  0.324613936952E-04
  0.338440472669E-04  0.352440924797E-04  0.366617480932E-04  0.380972356193E-04
  0.395507793556E-04  0.410226064213E-04  0.425129467925E-04  0.440220333378E-04
  0.455501018551E-04  0.470973911082E-04  0.486641428642E-04  0.502506019312E-04
  0.518570161967E-04  0.534836366662E-04  0.551307175024E-04  0.567985160652E-04
  0.584872929513E-04  0.601973120357E-04  0.619288405122E-04  0.636821489358E-04
  0.654575112644E-04  0.672552049021E-04  0.690755107420E-04  0.709187132108E-04
  0.727851003125E-04  0.746749636739E-04  0.765885985900E-04  0.785263040701E-04
  0.804883828848E-04  0.824751416127E-04  0.844868906890E-04  0.865239444536E-04
  0.885866212002E-04  0.906752432264E-04  0.927901368835E-04  0.949316326280E-04
  0.971000650729E-04  0.992957730402E-04  0.101519099614E-03  0.103770392193E-03
  0.106050002547E-03  0.108358286869E-03  0.110695605834E-03  0.113062324652E-03
  0.115458813127E-03  0.117885445718E-03  0.120342601588E-03  0.122830664675E-03
  0.125350023742E-03  0.127901072446E-03  0.130484209392E-03  0.133099838201E-03
  0.135748367570E-03  0.138430211337E-03  0.141145788546E-03  0.143895523512E-03
  0.146679845886E-03  0.149499190723E-03  0.152353998554E-03  0.155244715446E-03
  0.158171793080E-03  0.161135688819E-03  0.164136865776E-03  0.167175792892E-03
  0.170252945006E-03  0.173368802929E-03  0.176523853520E-03  0.179718589761E-03
  0.182953510838E-03  0.186229122212E-03  0.189545935705E-03  0.192904469577E-03
  0.196305248603E-03  0.199748804164E-03  0.203235674322E-03  0.206766403907E-03
  0.210341544603E-03  0.213961655033E-03  0.217627300847E-03  0.221339054809E-03
  0.225097496888E-03  0.228903214349E-03  0.232756801842E-03  0.236658861499E-03
  0.240610003024E-03  0.244610843792E-03  0.248662008941E-03  0.252764131475E-03
  0.256917852358E-03  0.261123820618E-03  0.265382693446E-03  0.269695136299E-03
  0.274061823006E-03  0.278483435870E-03  0.282960665777E-03  0.287494212304E-03
  0.292084783826E-03  0.296733097629E-03  0.301439880023E-03  0.306205866450E-03
  0.311031801607E-03  0.315918439555E-03  0.320866543842E-03  0.325876887619E-03
  0.330950253763E-03  0.336087434996E-03  0.341289234015E-03  0.346556463610E-03
  0.351889946798E-03  0.357290516946E-03  0.362759017904E-03  0.368296304135E-03
  0.373903240854E-03  0.379580704154E-03  0.385329581151E-03  0.391150770119E-03
  0.397045180630E-03  0.403013733699E-03  0.409057361922E-03  0.415177009631E-03
  0.421373633032E-03  0.427648200359E-03  0.434001692028E-03  0.440435100784E-03
  0.446949431860E-03  0.453545703134E-03  0.460224945287E-03  0.466988201963E-03
  0.473836529936E-03  0.480770999270E-03  0.487792693491E-03  0.494902709752E-03
  0.502102159008E-03  0.509392166188E-03  0.516773870370E-03  0.524248424960E-03
  0.531816997873E-03  0.539480771713E-03  0.547240943962E-03  0.555098727161E-03
  0.563055349105E-03  0.571112053032E-03  0.579270097820E-03  0.587530758178E-03
  0.595895324853E-03  0.604365104824E-03  0.612941421512E-03  0.621625614984E-03
  0.630419042163E-03  0.639323077039E-03  0.648339110887E-03  0.657468552479E-03
  0.666712828311E-03  0.676073382817E-03  0.685551678605E-03  0.695149196677E-03
  0.704867436665E-03  0.714707917064E-03  0.724672175469E-03  0.734761768815E-03
  0.744978273622E-03  0.755323286240E-03  0.765798423098E-03  0.776405320957E-03
  0.787145637167E-03  0.798021049924E-03  0.809033258533E-03  0.820183983674E-03
  0.831474967671E-03  0.842907974764E-03  0.854484791382E-03  0.866207226427E-03
  0.878077111553E-03  0.890096301453E-03  0.902266674152E-03  0.914590131294E-03
  0.927068598444E-03  0.939704025389E-03  0.952498386439E-03  0.965453680739E-03
  0.978571932582E-03  0.991855191719E-03  0.100530553369E-02  0.101892506013E-02
  0.103271589913E-02  0.104668020552E-02  0.106082016127E-02  0.107513797577E-02
  0.108963588620E-02  0.110431615790E-02  0.111918108468E-02  0.113423298922E-02
  0.114947422342E-02  0.116490716874E-02  0.118053423661E-02  0.119635786880E-02
  0.121238053779E-02  0.122860474713E-02  0.124503303191E-02  0.126166795907E-02
  0.127851212786E-02  0.129556817021E-02  0.131283875116E-02  0.133032656928E-02
  0.134803435707E-02  0.136596488141E-02  0.138412094398E-02  0.140250538170E-02
  0.142112106719E-02  0.143997090917E-02  0.145905785297E-02  0.147838488097E-02
  0.149795501306E-02  0.151777130711E-02  0.153783685945E-02  0.155815480537E-02
  0.157872831958E-02  0.159956061675E-02  0.162065495196E-02  0.164201462124E-02
  0.166364296209E-02  0.168554335397E-02  0.170771921887E-02  0.173017402182E-02
  0.175291127141E-02  0.177593452040E-02  0.179924736621E-02  0.182285345152E-02
  0.184675646483E-02  0.187096014103E-02  0.189546826200E-02  0.192028465719E-02
  0.194541320420E-02  0.197085782942E-02  0.199662250862E-02  0.202271126760E-02
  0.204912818276E-02  0.207587738181E-02  0.210296304437E-02  0.213038940262E-02
  0.215816074199E-02  0.218628140180E-02  0.221475577597E-02  0.224358831368E-02
  0.227278352006E-02  0.230234595694E-02  0.233228024349E-02  0.236259105702E-02
  0.239328313364E-02  0.242436126906E-02  0.245583031931E-02  0.248769520148E-02
  0.251996089452E-02  0.255263244002E-02  0.258571494297E-02  0.261921357258E-02
  0.265313356309E-02  0.268748021454E-02  0.272225889369E-02  0.275747503477E-02
  0.279313414038E-02  0.282924178231E-02  0.286580360247E-02  0.290282531372E-02
  0.294031270076E-02  0.297827162108E-02  0.301670800585E-02  0.305562786082E-02
  0.309503726729E-02  0.313494238308E-02  0.317534944343E-02  0.321626476204E-02
  0.325769473199E-02  0.329964582682E-02  0.334212460146E-02  0.338513769330E-02
  0.342869182324E-02  0.347279379669E-02  0.351745050468E-02  0.356266892490E-02
  0.360845612283E-02  0.365481925281E-02  0.370176555918E-02  0.374930237738E-02
  0.379743713515E-02  0.384617735364E-02  0.389553064861E-02  0.394550473160E-02
  0.399610741117E-02  0.404734659410E-02  0.409923028661E-02  0.415176659562E-02
  0.420496373006E-02  0.425883000207E-02  0.431337382838E-02  0.436860373156E-02
  0.442452834140E-02  0.448115639624E-02  0.453849674432E-02  0.459655834519E-02
  0.465535027109E-02  0.471488170838E-02  0.477516195898E-02  0.483620044178E-02
  0.489800669418E-02  0.496059037353E-02  0.502396125867E-02  0.508812925140E-02
  0.515310437813E-02  0.521889679134E-02  0.528551677123E-02  0.535297472731E-02
  0.542128120002E-02  0.549044686238E-02  0.556048252168E-02  0.563139912113E-02
  0.570320774158E-02  0.577591960329E-02  0.584954606763E-02  0.592409863888E-02
  0.599958896603E-02  0.607602884461E-02  0.615343021850E-02  0.623180518181E-02
  0.631116598081E-02  0.639152501577E-02  0.647289484295E-02  0.655528817656E-02
  0.663871789073E-02  0.672319702152E-02  0.680873876896E-02  0.689535649912E-02
  0.698306374620E-02  0.707187421464E-02  0.716180178126E-02  0.725286049741E-02
  0.734506459121E-02  0.743842846974E-02  0.753296672129E-02  0.762869411765E-02
  0.772562561644E-02  0.782377636338E-02  0.792316169473E-02  0.802379713966E-02
  0.812569842266E-02  0.822888146601E-02  0.833336239227E-02  0.843915752679E-02
  0.854628340029E-02  0.865475675140E-02  0.876459452930E-02  0.887581389636E-02
  0.898843223084E-02  0.910246712959E-02  0.921793641078E-02  0.933485811674E-02
  0.945325051670E-02  0.957313210973E-02  0.969452162757E-02  0.981743803757E-02
  0.994190054569E-02  0.100679285994E-01  0.101955418909E-01  0.103247603600E-01
  0.104556041974E-01  0.105880938476E-01  0.107222500125E-01  0.108580936542E-01
  0.109956459986E-01  0.111349285384E-01  0.112759630369E-01  0.114187715311E-01
  0.115633763349E-01  0.117098000433E-01  0.118580655352E-01  0.120081959774E-01
  0.121602148281E-01  0.123141458406E-01  0.124700130668E-01  0.126278408614E-01
  0.127876538852E-01  0.129494771094E-01  0.131133358192E-01  0.132792556179E-01
  0.134472624307E-01  0.136173825090E-01  0.137896424345E-01  0.139640691231E-01
  0.141406898294E-01  0.143195321507E-01  0.145006240314E-01  0.146839937676E-01
  0.148696700112E-01  0.150576817743E-01  0.152480584344E-01  0.154408297380E-01
  0.156360258061E-01  0.158336771385E-01  0.160338146186E-01  0.162364695183E-01
  0.164416735028E-01  0.166494586357E-01  0.168598573838E-01  0.170729026224E-01
  0.172886276402E-01  0.175070661447E-01  0.177282522673E-01  0.179522205689E-01
  0.181790060448E-01  0.184086441309E-01  0.186411707086E-01  0.188766221105E-01
  0.191150351265E-01  0.193564470090E-01  0.196008954792E-01  0.198484187327E-01
  0.200990554454E-01  0.203528447798E-01  0.206098263911E-01  0.208700404331E-01
  0.211335275648E-01  0.214003289567E-01  0.216704862969E-01  0.219440417982E-01
  0.222210382041E-01  0.225015187958E-01  0.227855273991E-01  0.230731083908E-01
  0.233643067061E-01  0.236591678453E-01  0.239577378810E-01  0.242600634655E-01
  0.245661918376E-01  0.248761708307E-01  0.251900488795E-01  0.255078750282E-01
  0.258296989376E-01  0.261555708935E-01  0.264855418140E-01  0.268196632578E-01
  0.271579874319E-01  0.275005672002E-01  0.278474560916E-01  0.281987083081E-01
  0.285543787336E-01  0.289145229422E-01  0.292791972074E-01  0.296484585101E-01
  0.300223645483E-01  0.304009737454E-01  0.307843452599E-01  0.311725389945E-01
  0.315656156051E-01  0.319636365109E-01  0.323666639033E-01  0.327747607562E-01
  0.331879908357E-01  0.336064187096E-01  0.340301097583E-01  0.344591301843E-01
  0.348935470230E-01  0.353334281528E-01  0.357788423061E-01  0.362298590797E-01
  0.366865489460E-01  0.371489832636E-01  0.376172342889E-01  0.380913751870E-01
  0.385714800434E-01  0.390576238755E-01  0.395498826442E-01  0.400483332660E-01
  0.405530536247E-01  0.410641225841E-01  0.415816199996E-01  0.421056267312E-01
  0.426362246562E-01  0.431734966814E-01  0.437175267567E-01  0.442683998880E-01
  0.448262021503E-01  0.453910207013E-01  0.459629437951E-01  0.465420607958E-01
  0.471284621916E-01  0.477222396090E-01  0.483234858268E-01  0.489322947910E-01
  0.495487616294E-01  0.501729826659E-01  0.508050554365E-01  0.514450787039E-01
  0.520931524728E-01  0.527493780063E-01  0.534138578409E-01  0.540866958028E-01
  0.547679970245E-01  0.554578679605E-01  0.561564164047E-01  0.568637515067E-01
  0.575799837889E-01  0.583052251642E-01  0.590395889530E-01  0.597831899012E-01
  0.605361441978E-01  0.612985694935E-01  0.620705849189E-01  0.628523111029E-01
  0.636438701919E-01  0.644453858684E-01  0.652569833711E-01  0.660787895136E-01
  0.669109327049E-01  0.677535429690E-01  0.686067519654E-01  0.694706930099E-01
  0.703455010949E-01  0.712313129110E-01  0.721282668682E-01  0.730365031172E-01
  0.739561635718E-01  0.748873919310E-01  0.758303337009E-01  0.767851362181E-01
  0.777519486726E-01  0.787309221307E-01  0.797222095589E-01  0.807259658481E-01
  0.817423478371E-01  0.827715143377E-01  0.838136261592E-01  0.848688461338E-01
  0.859373391417E-01  0.870192721372E-01  0.881148141743E-01  0.892241364340E-01
  0.903474122498E-01  0.914848171362E-01  0.926365288147E-01  0.938027272428E-01
  0.949835946413E-01  0.961793155232E-01  0.973900767222E-01  0.986160674223E-01
  0.998574791870E-01  0.101114505989      0.102387344243      0.103676192830    
  0.104981253137      0.106302729082      0.107640827148      0.108995756415    
  0.110367728595      0.111756958060      0.113163661881      0.114588059858    
  0.116030374555      0.117490831338      0.118969658406      0.120467086829    
  0.121983350582      0.123518686586      0.125073334739      0.126647537958    
  0.128241542217      0.129855596581      0.131489953249      0.133144867594    
  0.134820598198      0.136517406899      0.138235558825      0.139975322443    
  0.141736969592      0.143520775535      0.145327018995      0.147155982200    
  0.149007950931      0.150883214560      0.152782066103      0.154704802257    
  0.156651723455      0.158623133906      0.160619341649      0.162640658594    
  0.164687400576      0.166759887403      0.168858442905      0.170983394986    
  0.173135075674      0.175313821172      0.177519971916      0.179753872620    
  0.182015872335      0.184306324504      0.186625587015      0.188974022257    
  0.191351997178      0.193759883342      0.196198056984      0.198666899076    
  0.201166795378      0.203698136505      0.206261317983      0.208856740316    
  0.211484809042      0.214145934804      0.216840533407      0.219569025888    
  0.222331838579      0.225129403176      0.227962156804      0.230830542086    
  0.233735007213      0.236676006014      0.239653998026      0.242669448567    
  0.245722828805      0.248814615839      0.251945292767      0.255115348762    
  0.258325279153      0.261575585498      0.264866775664      0.268199363906    
  0.271573870948      0.274990824063      0.278450757157      0.281954210852    
  0.285501732569      0.289093876617      0.292731204274      0.296414283881    
  0.300143690926      0.303920008137      0.307743825571      0.311615740707    
  0.315536358541      0.319506291675      0.323526160422      0.327596592892    
  0.331718225100      0.335891701059      0.340117672884      0.344396800890    
  0.348729753700      0.353117208347      0.357559850380      0.362058373970    
  0.366613482022      0.371225886279      0.375896307440      0.380625475266    
  0.385414128702      0.390263015982      0.395172894756      0.400144532203    
  0.405178705150      0.410276200197      0.415437813839      0.420664352588    
  0.425956633102      0.431315482309      0.436741737542      0.442236246662    
  0.447799868200      0.453433471482      0.459137936769      0.464914155397    
  0.470763029910      0.476685474209      0.482682413686      0.488754785375    
  0.494903538098      0.501129632609      0.507434041748      0.513817750591    
  0.520281756607      0.526827069810      0.533454712917      0.540165721512    
  0.546961144204      0.553842042790      0.560809492426      0.567864581790    
  0.575008413253      0.582242103054      0.589566781472      0.596983593002    
  0.604493696536      0.612098265544      0.619798488255      0.627595567844    
  0.635490722621      0.643485186219      0.651580207791      0.659777052199    
  0.668077000217      0.676481348729      0.684991410932      0.693608516540    
  0.702334011992      0.711169260667      0.720115643089      0.729174557149    
  0.738347418320      0.747635659881      0.757040733139      0.766564107654    
  0.776207271475      0.785971731364      0.795859013039      0.805870661407    
  0.816008240809      0.826273335262      0.836667548708      0.847192505265    
  0.857849849478      0.868641246578      0.879568382744      0.890632965362    
  0.901836723297      0.913181407158      0.924668789575      0.936300665476    
  0.948078852363      0.960005190604      0.972081543712      0.984309798643    
  0.996691866086       1.00922968076       1.02192520174       1.03478041270    
   1.04779732232       1.06097796450       1.07432439875       1.08783871048    
   1.10152301133       1.11537943948       1.12941016005       1.14361736536    
   1.15800327531       1.17257013773       1.18732022873       1.20225585303    
   1.21737934435       1.23269306578       1.24819941011       1.26390080025    
   1.27979968955       1.29589856227       1.31219993388       1.32870635150    
   1.34542039429       1.36234467386       1.37948183466       1.39683455441    
   1.41440554450       1.43219755044       1.45021335227       1.46845576498    
   1.48692763900       1.50563186059       1.52457135233       1.54374907354    
   1.56316802079       1.58283122833       1.60274176858       1.62290275258    
   1.64331733055       1.66398869230       1.68492006777       1.70611472753    
   1.72757598329       1.74930718842       1.77131173846       1.79359307166    
   1.81615466954       1.83900005738       1.86213280482       1.88555652641    
   1.90927488215       1.93329157807       1.95761036684       1.98223504831    
   2.00716947015       2.03241752840       2.05798316813       2.08387038402    
   2.11008322101       2.13662577489       2.16350219300       2.19071667483    
   2.21827347270       2.24617689242       2.27443129395       2.30304109211    
   2.33201075722       2.36134481586       2.39104785154       2.42112450541    
   2.45157947701       2.48241752500       2.51364346788       2.54526218477    
   2.57727861616       2.60969776468       2.64252469589       2.67576453906    
   2.70942248799       2.74350380180       2.77801380576       2.81295789214    
   2.84834152101       2.88417022114       2.92044959084       2.95718529884    
   2.99438308515       3.03204876202       3.07018821479       3.10880740280    
   3.14791236041       3.18750919783       3.22760410215       3.26820333828    
   3.30931324993       3.35094026062       3.39309087464       3.43577167812    
   3.47898934002       3.52275061318       3.56706233540       3.61193143047    
   3.65736490927       3.70336987089       3.74995350369       3.79712308645    
   3.84488598953       3.89324967597       3.94222170269       3.99180972168    
   4.04202148117       4.09286482683       4.14434770306       4.19647815415    
   4.24926432559       4.30271446533       4.35683692507       4.41164016154    
   4.46713273787       4.52332332488       4.58022070246       4.63783376095    
   4.69617150251       4.75524304252       4.81505761103       4.87562455419    
   4.93695333572       4.99905353835       5.06193486537       5.12560714212    
   5.19008031751       5.25536446561       5.32146978721       5.38840661140    
   5.45618539718       5.52481673513       5.59431134905       5.66468009759    
   5.73593397603       5.80808411793       5.88114179689       5.95511842833    
   6.03002557124       6.10587493001       6.18267835627       6.26044785071    
   6.33919556496       6.41893380352       6.49967502565       6.58143184733    
   6.66421704323       6.74804354870       6.83292446181       6.91887304538    
   7.00590272903       7.09402711135       7.18325996193       7.27361522361    
   7.36510701456       7.45774963058       7.55155754725       7.64654542225    
   7.74272809764       7.84012060215       7.93873815355       8.03859616105    
   8.13971022766       8.24209615265       8.34576993404       8.45074777106    
   8.55704606672       8.66468143034       8.77367068017       8.88403084599    
   8.99577917181       9.10893311854       9.22351036669       9.33952881922    
   9.45700660422       9.57596207785       9.69641382714       9.81838067292    
   9.94188167276       10.0669361239       10.1935635665       10.3217837862    
   10.4516168177       10.5830829477       10.7162027180       10.8509969290    
   10.9874866423       11.1256931850       11.2656381519       11.4073434098    
   11.5508311004       11.6961236440       11.8432437428       11.9922143847    
   12.1430588465       12.2958006981       12.4504638057       12.6070723356    
   12.7656507584       12.9262238522       13.0888167069       13.2534547279    
   13.4201636403       13.5889694926       13.7598986612       13.9329778541    
   14.1082341152       14.2856948286       14.4653877231       14.6473408759    
