 Li pb nrl nc  
 atom 5.69p25-NOV-18   Improved Troullier - Martins potential
 2s(  1.00)  rc= 2.432p(  0.00)  rc= 2.43                              
   2  0  950  0.826250725555E-03  0.125000000000E-01   1.00000000000     nl nls nr a b zion 
 Radial grid follows
  0.103929547118E-04  0.209166367008E-04  0.315726903138E-04  0.423627805807E-04
  0.532885934752E-04  0.643518361777E-04  0.755542373424E-04  0.868975473673E-04
  0.983835386677E-04  0.110014005953E-03  0.121790766508E-03  0.133715660474E-03
  0.145790551141E-03  0.158017325236E-03  0.170397893216E-03  0.182934189570E-03
  0.195628173120E-03  0.208481827328E-03  0.221497160602E-03  0.234676206614E-03
  0.248021024619E-03  0.261533699770E-03  0.275216343451E-03  0.289071093602E-03
  0.303100115056E-03  0.317305599877E-03  0.331689767701E-03  0.346254866082E-03
  0.361003170847E-03  0.375936986450E-03  0.391058646328E-03  0.406370513272E-03
  0.421874979793E-03  0.437574468494E-03  0.453471432453E-03  0.469568355603E-03
  0.485867753121E-03  0.502372171821E-03  0.519084190551E-03  0.536006420599E-03
  0.553141506098E-03  0.570492124439E-03  0.588060986693E-03  0.605850838029E-03
  0.623864458147E-03  0.642104661714E-03  0.660574298797E-03  0.679276255315E-03
  0.698213453487E-03  0.717388852289E-03  0.736805447915E-03  0.756466274248E-03
  0.776374403333E-03  0.796532945854E-03  0.816945051626E-03  0.837613910081E-03
  0.858542750771E-03  0.879734843869E-03  0.901193500683E-03  0.922922074172E-03
  0.944923959469E-03  0.967202594415E-03  0.989761460090E-03  0.101260408136E-02
  0.103573402744E-02  0.105915491243E-02  0.108287039588E-02  0.110688418339E-02
  0.113120002717E-02  0.115582172660E-02  0.118075312889E-02  0.120599812962E-02
  0.123156067336E-02  0.125744475432E-02  0.128365441694E-02  0.131019375653E-02
  0.133706691992E-02  0.136427810609E-02  0.139183156684E-02  0.141973160747E-02
  0.144798258741E-02  0.147658892093E-02  0.150555507783E-02  0.153488558413E-02
  0.156458502278E-02  0.159465803438E-02  0.162510931790E-02  0.165594363142E-02
  0.168716579285E-02  0.171878068073E-02  0.175079323494E-02  0.178320845752E-02
  0.181603141340E-02  0.184926723124E-02  0.188292110421E-02  0.191699829078E-02
  0.195150411560E-02  0.198644397026E-02  0.202182331419E-02  0.205764767548E-02
  0.209392265177E-02  0.213065391109E-02  0.216784719277E-02  0.220550830834E-02
  0.224364314243E-02  0.228225765369E-02  0.232135787570E-02  0.236094991796E-02
  0.240103996680E-02  0.244163428639E-02  0.248273921965E-02  0.252436118932E-02
  0.256650669893E-02  0.260918233378E-02  0.265239476204E-02  0.269615073573E-02
  0.274045709182E-02  0.278532075326E-02  0.283074873009E-02  0.287674812053E-02
  0.292332611207E-02  0.297048998262E-02  0.301824710163E-02  0.306660493124E-02
  0.311557102748E-02  0.316515304138E-02  0.321535872024E-02  0.326619590880E-02
  0.331767255047E-02  0.336979668859E-02  0.342257646765E-02  0.347602013460E-02
  0.353013604013E-02  0.358493263996E-02  0.364041849616E-02  0.369660227851E-02
  0.375349276585E-02  0.381109884742E-02  0.386942952430E-02  0.392849391078E-02
  0.398830123577E-02  0.404886084431E-02  0.411018219895E-02  0.417227488127E-02
  0.423514859339E-02  0.429881315945E-02  0.436327852717E-02  0.442855476940E-02
  0.449465208567E-02  0.456158080383E-02  0.462935138163E-02  0.469797440836E-02
  0.476746060651E-02  0.483782083343E-02  0.490906608306E-02  0.498120748761E-02
  0.505425631932E-02  0.512822399222E-02  0.520312206390E-02  0.527896223736E-02
  0.535575636276E-02  0.543351643934E-02  0.551225461728E-02  0.559198319957E-02
  0.567271464398E-02  0.575446156494E-02  0.583723673559E-02  0.592105308971E-02
  0.600592372378E-02  0.609186189901E-02  0.617888104341E-02  0.626699475390E-02
  0.635621679843E-02  0.644656111813E-02  0.653804182947E-02  0.663067322650E-02
  0.672446978307E-02  0.681944615509E-02  0.691561718280E-02  0.701299789311E-02
  0.711160350198E-02  0.721144941672E-02  0.731255123845E-02  0.741492476456E-02
  0.751858599110E-02  0.762355111535E-02  0.772983653834E-02  0.783745886736E-02
  0.794643491864E-02  0.805678171990E-02  0.816851651305E-02  0.828165675688E-02
  0.839622012978E-02  0.851222453252E-02  0.862968809102E-02  0.874862915919E-02
  0.886906632183E-02  0.899101839748E-02  0.911450444141E-02  0.923954374855E-02
  0.936615585656E-02  0.949436054884E-02  0.962417785762E-02  0.975562806713E-02
  0.988873171674E-02  0.100235096041E-01  0.101599827887E-01  0.102981725946E-01
  0.104381006142E-01  0.105797887117E-01  0.107232590260E-01  0.108685339747E-01
  0.110156362574E-01  0.111645888589E-01  0.113154150536E-01  0.114681384082E-01
  0.116227827861E-01  0.117793723509E-01  0.119379315699E-01  0.120984852184E-01
  0.122610583831E-01  0.124256764665E-01  0.125923651905E-01  0.127611506006E-01
  0.129320590697E-01  0.131051173028E-01  0.132803523404E-01  0.134577915635E-01
  0.136374626972E-01  0.138193938156E-01  0.140036133457E-01  0.141901500723E-01
  0.143790331420E-01  0.145702920683E-01  0.147639567358E-01  0.149600574048E-01
  0.151586247166E-01  0.153596896978E-01  0.155632837650E-01  0.157694387304E-01
  0.159781868060E-01  0.161895606092E-01  0.164035931675E-01  0.166203179239E-01
  0.168397687422E-01  0.170619799120E-01  0.172869861542E-01  0.175148226266E-01
  0.177455249289E-01  0.179791291090E-01  0.182156716680E-01  0.184551895661E-01
  0.186977202284E-01  0.189433015509E-01  0.191919719062E-01  0.194437701495E-01
  0.196987356248E-01  0.199569081710E-01  0.202183281280E-01  0.204830363433E-01
  0.207510741781E-01  0.210224835138E-01  0.212973067586E-01  0.215755868544E-01
  0.218573672828E-01  0.221426920727E-01  0.224316058066E-01  0.227241536279E-01
  0.230203812478E-01  0.233203349525E-01  0.236240616104E-01  0.239316086792E-01
  0.242430242140E-01  0.245583568740E-01  0.248776559306E-01  0.252009712748E-01
  0.255283534255E-01  0.258598535367E-01  0.261955234060E-01  0.265354154824E-01
  0.268795828749E-01  0.272280793602E-01  0.275809593917E-01  0.279382781076E-01
  0.283000913396E-01  0.286664556218E-01  0.290374281994E-01  0.294130670376E-01
  0.297934308307E-01  0.301785790113E-01  0.305685717597E-01  0.309634700130E-01
  0.313633354748E-01  0.317682306249E-01  0.321782187291E-01  0.325933638487E-01
  0.330137308511E-01  0.334393854195E-01  0.338703940633E-01  0.343068241284E-01
  0.347487438079E-01  0.351962221527E-01  0.356493290822E-01  0.361081353952E-01
  0.365727127812E-01  0.370431338314E-01  0.375194720499E-01  0.380018018656E-01
  0.384901986435E-01  0.389847386967E-01  0.394854992979E-01  0.399925586921E-01
  0.405059961083E-01  0.410258917722E-01  0.415523269185E-01  0.420853838037E-01
  0.426251457192E-01  0.431716970037E-01  0.437251230571E-01  0.442855103533E-01
  0.448529464540E-01  0.454275200221E-01  0.460093208360E-01  0.465984398033E-01
  0.471949689749E-01  0.477990015599E-01  0.484106319394E-01  0.490299556820E-01
  0.496570695583E-01  0.502920715561E-01  0.509350608957E-01  0.515861380457E-01
  0.522454047379E-01  0.529129639844E-01  0.535889200924E-01  0.542733786816E-01
  0.549664467000E-01  0.556682324409E-01  0.563788455598E-01  0.570983970913E-01
  0.578269994668E-01  0.585647665321E-01  0.593118135646E-01  0.600682572920E-01
  0.608342159102E-01  0.616098091018E-01  0.623951580547E-01  0.631903854814E-01
  0.639956156377E-01  0.648109743425E-01  0.656365889973E-01  0.664725886060E-01
  0.673191037953E-01  0.681762668348E-01  0.690442116581E-01  0.699230738834E-01
  0.708129908345E-01  0.717141015629E-01  0.726265468689E-01  0.735504693239E-01
  0.744860132928E-01  0.754333249562E-01  0.763925523334E-01  0.773638453057E-01
  0.783473556396E-01  0.793432370106E-01  0.803516450271E-01  0.813727372550E-01
  0.824066732420E-01  0.834536145427E-01  0.845137247438E-01  0.855871694897E-01
  0.866741165084E-01  0.877747356374E-01  0.888891988508E-01  0.900176802858E-01
  0.911603562698E-01  0.923174053482E-01  0.934890083125E-01  0.946753482278E-01
  0.958766104623E-01  0.970929827156E-01  0.983246550484E-01  0.995718199118E-01
  0.100834672178      0.102113409170      0.103408230694      0.104719339067    
  0.106046939154      0.107391238394      0.108752446837      0.110130777174    
  0.111526444772      0.112939667708      0.114370666800      0.115819665645    
  0.117286890651      0.118772571076      0.120276939061      0.121800229665    
  0.123342680906      0.124904533795      0.126486032376      0.128087423759    
  0.129708958167      0.131350888966      0.133013472713      0.134696969188    
  0.136401641442      0.138127755834      0.139875582072      0.141645393257    
  0.143437465927      0.145252080096      0.147089519301      0.148950070647    
  0.150834024847      0.152741676274      0.154673323002      0.156629266855    
  0.158609813452      0.160615272260      0.162645956633      0.164702183872    
  0.166784275265      0.168892556144      0.171027355931      0.173189008195    
  0.175377850696      0.177594225447      0.179838478761      0.182110961306    
  0.184412028162      0.186742038877      0.189101357518      0.191490352735    
  0.193909397812      0.196358870730      0.198839154225      0.201350635845    
  0.203893708016      0.206468768096      0.209076218445      0.211716466482    
  0.214389924750      0.217097010984      0.219838148171      0.222613764620    
  0.225424294025      0.228270175538      0.231151853834      0.234069779181    
  0.237024407510      0.240016200488      0.243045625590      0.246113156168    
  0.249219271531      0.252364457016      0.255549204064      0.258774010298    
  0.262039379601      0.265345822194      0.268693854715      0.272084000300    
  0.275516788668      0.278992756198      0.282512446016      0.286076408083    
  0.289685199273      0.293339383469      0.297039531644      0.300786221953    
  0.304580039825      0.308421578051      0.312311436879      0.316250224108    
  0.320238555181      0.324277053284      0.328366349439      0.332507082608    
  0.336699899788      0.340945456116      0.345244414968      0.349597448066    
  0.354005235580      0.358468466236      0.362987837422      0.367564055300    
  0.372197834912      0.376889900297      0.381640984598      0.386451830184    
  0.391323188757      0.396255821479      0.401250499081      0.406308001995    
  0.411429120463      0.416614654672      0.421865414871      0.427182221504    
  0.432565905331      0.438017307564      0.443537279996      0.449126685133    
  0.454786396332      0.460517297935      0.466320285405      0.472196265472    
  0.478146156270      0.484170887481      0.490271400481      0.496448648488    
  0.502703596710      0.509037222496      0.515450515486      0.521944477771    
  0.528520124046      0.535178481770      0.541920591323      0.548747506174    
  0.555660293044      0.562660032067      0.569747816969      0.576924755230    
  0.584191968261      0.591550591579      0.599001774984      0.606546682738    
  0.614186493749      0.621922401752      0.629755615499      0.637687358946    
  0.645718871443      0.653851407931      0.662086239135      0.670424651765    
  0.678867948713      0.687417449263      0.696074489292      0.704840421479    
  0.713716615519      0.722704458336      0.731805354298      0.741020725439    
  0.750352011679      0.759800671051      0.769368179927      0.779056033250    
  0.788865744766      0.798798847263      0.808856892809      0.819041452993    
  0.829354119174      0.839796502727      0.850370235295      0.861076969046    
  0.871918376929      0.882896152935      0.894012012365      0.905267692094    
  0.916664950845      0.928205569463      0.939891351193      0.951724121962    
  0.963705730665      0.975838049452      0.988122974024       1.00056242392    
   1.01315834284       1.02591269891       1.03882748504       1.05190471917    
   1.06514644466       1.07855473055       1.09213167192       1.10587939019    
   1.11980003346       1.13389577687       1.14816882291       1.16262140176    
   1.17725577168       1.19207421931       1.20707906006       1.22227263848    
   1.23765732859       1.25323553427       1.26900968967       1.28498225951    
   1.30115573954       1.31753265691       1.33411557055       1.35090707156    
   1.36790978365       1.38512636353       1.40255950132       1.42021192100    
   1.43808638078       1.45618567358       1.47451262747       1.49307010605    
   1.51186100898       1.53088827238       1.55015486928       1.56966381014    
   1.58941814326       1.60942095531       1.62967537176       1.65018455741    
   1.67095171685       1.69198009500       1.71327297759       1.73483369167    
   1.75666560614       1.77877213230       1.80115672432       1.82382287985    
   1.84677414052       1.87001409251       1.89354636710       1.91737464128    
   1.94150263824       1.96593412805       1.99067292816       2.01572290408    
   2.04108796990       2.06677208898       2.09277927450       2.11911359014    
   2.14577915070       2.17278012272       2.20012072515       2.22780523003    
   2.25583796312       2.28422330457       2.31296568967       2.34206960947    
   2.37153961151       2.40138030055       2.43159633924       2.46219244892    
   2.49317341028       2.52454406415       2.55630931228       2.58847411804    
   2.62104350726       2.65402256895       2.68741645618       2.72123038680    
   2.75546964430       2.79013957865       2.82524560709       2.86079321500    
   2.89678795678       2.93323545667       2.97014140967       3.00751158242    
   3.04535181407       3.08366801724       3.12246617892       3.16175236139    
   3.20153270321       3.24181342013       3.28260080609       3.32390123421    
   3.36572115777       3.40806711120       3.45094571117       3.49436365752    
   3.53832773440       3.58284481130       3.62792184409       3.67356587615    
   3.71978403946       3.76658355570       3.81397173738       3.86195598902    
   3.91054380823       3.95974278697       4.00956061269       4.06000506951    
   4.11108403949       4.16280550381       4.21517754407       4.26820834350    
   4.32190618826       4.37627946877       4.43133668095       4.48708642761    
   4.54353741975       4.60069847796       4.65857853378       4.71718663107    
   4.77653192747       4.83662369580       4.89747132554       4.95908432423    
   5.02147231905       5.08464505823       5.14861241265       5.21338437734    
   5.27897107304       5.34538274783       5.41262977864       5.48072267297    
   5.54967207048       5.61948874464       5.69018360445       5.76176769613    
   5.83425220484       5.90764845643       5.98196791921       6.05722220576    
   6.13342307470       6.21058243257       6.28871233570       6.36782499202    
   6.44793276305       6.52904816581       6.61118387472       6.69435272367    
   6.77856770796       6.86384198634       6.95018888310       7.03762189012    
   7.12615466898       7.21580105311       7.30657504994       7.39849084309    
   7.49156279459       7.58580544712       7.68123352628       7.77786194292    
   7.87570579542       7.97478037207       8.07510115348       8.17668381498    
   8.27954422906       8.38369846788       8.48916280574       8.59595372167    
   8.70408790196       8.81358224280       8.92445385289       9.03672005616    
   9.15039839443       9.26550663016       9.38206274927       9.50008496386    
   9.61959171517       9.74060167635       9.86313375547       9.98720709841    
   10.1128410919       10.2400553664       10.3688697996       10.4993045189    
   10.6313799049       10.7651165948       10.9005354852       11.0376577355    
   11.1765047714       11.3170982880       11.4594602534       11.6036129118    
   11.7495787875       11.8973806878       12.0470417072       12.1985852305    
   12.3520349366       12.5074148025       12.6647491064       12.8240624323    
   12.9853796731       13.1487260350       13.3141270412       13.4816085360    
   13.6511966886       13.8229179976       13.9967992947       14.1728677493    
   14.3511508724       14.5316765212       14.7144729031       14.8995685804    
   15.0869924747       15.2767738714       15.4689424242       15.6635281598    
   15.8605614827       16.0600731796       16.2620944248       16.4666567845    
   16.6737922218       16.8835331022       17.0959121981       17.3109626942    
   17.5287181925       17.7492127179       17.9724807229       18.1985570937    
   18.4274771551       18.6592766765       18.8939918769       19.1316594311    
   19.3723164751       19.6160006121       19.8627499181       20.1126029484    
   20.3655987429       20.6217768327       20.8811772463       21.1438405153    
   21.4098076816       21.6791203029       21.9518204601       22.2279507629    
   22.5075543574       22.7906749321       23.0773567253       23.3676445315    
   23.6615837088       23.9592201858       24.2606004688       24.5657716491    
   24.8747814103       25.1876780359       25.5045104164       25.8253280577    
   26.1501810881       26.4791202667       26.8121969908       27.1494633043    
   27.4909719057       27.8367761566       28.1869300895       28.5414884167    
   28.9005065386       29.2640405525       29.6321472615       30.0048841828    
   30.3823095574       30.7644823588       31.1514623023       31.5433098542    
   31.9400862416       32.3418534616       32.7486742910       33.1606122966    
   33.5777318444       34.0000981102       34.4277770896       34.8608356083    
   35.2993413326       35.7433627800       36.1929693295       36.6482312333    
   37.1092196269       37.5760065406       38.0486649109       38.5272685917    
   39.0118923656       39.5026119562       39.9995040394       40.5026462555    
   41.0121172217       41.5279965437       42.0503648287       42.5793036980    
   43.1148957991       43.6572248195       44.2063754993       44.7624336443    
   45.3254861396       45.8956209636       46.4729272007       47.0574950564    
   47.6494158706       48.2487821320       48.8556874929       49.4702267835    
   50.0924960267       50.7225924535       51.3606145176       52.0066619114    
   52.6608355810       53.3232377424       53.9939718973       54.6731428492    
   55.3608567201       56.0572209666       56.7623443969       57.4763371882    
   58.1993109032       58.9313785081       59.6726543898       60.4232543743    
   61.1832957444       61.9528972579       62.7321791668       63.5212632355    
   64.3202727598       65.1293325868       65.9485691336       66.7781104075    
   67.6180860262       68.4686272375       69.3298669403       70.2019397048    
   71.0849817944       71.9791311861       72.8845275927       73.8013124840    
   74.7296291097       75.6696225210       76.6214395940       77.5852290518    
   78.5611414887       79.5493293928       80.5499471706       81.5631511707    
   82.5890997081       83.6279530896       84.6798736379       85.7450257179    
   86.8235757617       87.9156922949       89.0215459631       90.1413095580    
   91.2751580450       92.4232685903       93.5858205885       94.7629956906    
   95.9549778327       97.1619532644       98.3841105781       99.6216407383    
   100.874737112       102.143595497       103.428414156       104.729393845    
   106.046737843       107.380651989       108.731344709       110.099027052    
   111.483912722       112.886218109       114.306162326       115.743967242    
   117.199857518       118.674060640    
 Pseudopotential follows (l on next line)
  0
  0.790993651077E-05  0.159193677736E-04  0.240295452817E-04  0.322417362626E-04
  0.405572238919E-04  0.489773074785E-04  0.575033026794E-04  0.661365416977E-04
  0.748783734949E-04  0.837301639999E-04  0.926932963231E-04  0.101769170972E-03
  0.110959206071E-03  0.120264837580E-03  0.129687519526E-03  0.139228724219E-03
  0.148889942494E-03  0.158672683935E-03  0.168578477116E-03  0.178608869837E-03
