 O  pb nrl nc  
 atom 5.69p25-NOV-18   Improved Troullier - Martins potential
 2s(  2.00)  rc= 1.102p(  4.00)  rc= 1.10                              
   2  0 1029  0.309844022083E-03  0.125000000000E-01   6.00000000000     nl nls nr a b zion 
 Radial grid follows
  0.389735801693E-05  0.784373876281E-05  0.118397588677E-04  0.158860427178E-04
  0.199832225532E-04  0.241319385666E-04  0.283328390034E-04  0.325865802628E-04
  0.368938270004E-04  0.412552522324E-04  0.456715374403E-04  0.501433726777E-04
  0.546714566780E-04  0.592564969634E-04  0.638992099558E-04  0.686003210887E-04
  0.733605649201E-04  0.781806852479E-04  0.830614352256E-04  0.880035774804E-04
  0.930078842321E-04  0.980751374137E-04  0.103206128794E-03  0.108401660101E-03
  0.113662543146E-03  0.118989599954E-03  0.124383662888E-03  0.129845574781E-03
  0.135376189068E-03  0.140976369919E-03  0.146646992373E-03  0.152388942477E-03
  0.158203117422E-03  0.164090425685E-03  0.170051787170E-03  0.176088133351E-03
  0.182200407420E-03  0.188389564433E-03  0.194656571457E-03  0.201002407725E-03
  0.207428064787E-03  0.213934546665E-03  0.220522870010E-03  0.227194064261E-03
  0.233949171805E-03  0.240789248143E-03  0.247715362049E-03  0.254728595743E-03
  0.261830045058E-03  0.269020819608E-03  0.276302042968E-03  0.283674852843E-03
  0.291140401250E-03  0.298699854695E-03  0.306354394360E-03  0.314105216280E-03
  0.321953531539E-03  0.329900566451E-03  0.337947562756E-03  0.346095777814E-03
  0.354346484801E-03  0.362700972906E-03  0.371160547534E-03  0.379726530512E-03
  0.388400260291E-03  0.397183092161E-03  0.406076398455E-03  0.415081568772E-03
  0.424200010187E-03  0.433433147476E-03  0.442782423334E-03  0.452249298606E-03
  0.461835252510E-03  0.471541782870E-03  0.481370406352E-03  0.491322658699E-03
  0.501400094969E-03  0.511604289783E-03  0.521936837567E-03  0.532399352802E-03
  0.542993470279E-03  0.553720845349E-03  0.564583154186E-03  0.575582094048E-03
  0.586719383543E-03  0.597996762894E-03  0.609415994214E-03  0.620978861782E-03
  0.632687172320E-03  0.644542755274E-03  0.656547463104E-03  0.668703171570E-03
  0.681011780026E-03  0.693475211716E-03  0.706095414078E-03  0.718874359044E-03
  0.731814043350E-03  0.744916488848E-03  0.758183742822E-03  0.771617878307E-03
  0.785220994414E-03  0.798995216658E-03  0.812942697289E-03  0.827065615629E-03
  0.841366178413E-03  0.855846620133E-03  0.870509203387E-03  0.885356219235E-03
  0.900389987551E-03  0.915612857394E-03  0.931027207368E-03  0.946635445996E-03
  0.962440012097E-03  0.978443375167E-03  0.994648035764E-03  0.101105652590E-02
  0.102767140943E-02  0.104449528247E-02  0.106153077378E-02  0.107878054520E-02
  0.109624729202E-02  0.111393374348E-02  0.113184266311E-02  0.114997684922E-02
  0.116833913530E-02  0.118693239052E-02  0.120575952009E-02  0.122482346580E-02
  0.124412720643E-02  0.126367375822E-02  0.128346617537E-02  0.130350755048E-02
  0.132380101505E-02  0.134434973998E-02  0.136515693606E-02  0.138622585444E-02
  0.140755978719E-02  0.142916206778E-02  0.145103607161E-02  0.147318521654E-02
  0.149561296342E-02  0.151832281662E-02  0.154131832460E-02  0.156460308048E-02
  0.158818072252E-02  0.161205493479E-02  0.163622944769E-02  0.166070803852E-02
  0.168549453213E-02  0.171059280144E-02  0.173600676811E-02  0.176174040314E-02
  0.178779772744E-02  0.181418281254E-02  0.184089978115E-02  0.186795280785E-02
  0.189534611974E-02  0.192308399708E-02  0.195117077396E-02  0.197961083901E-02
  0.200840863603E-02  0.203756866475E-02  0.206709548148E-02  0.209699369984E-02
  0.212726799149E-02  0.215792308685E-02  0.218896377585E-02  0.222039490864E-02
  0.225222139642E-02  0.228444821213E-02  0.231708039128E-02  0.235012303271E-02
  0.238358129941E-02  0.241746041930E-02  0.245176568605E-02  0.248650245994E-02
  0.252167616865E-02  0.255729230816E-02  0.259335644355E-02  0.262987420992E-02
  0.266685131324E-02  0.270429353127E-02  0.274220671442E-02  0.278059678671E-02
  0.281946974666E-02  0.285883166826E-02  0.289868870188E-02  0.293904707526E-02
  0.297991309449E-02  0.302129314496E-02  0.306319369239E-02  0.310562128383E-02
  0.314858254867E-02  0.319208419969E-02  0.323613303413E-02  0.328073593470E-02
  0.332589987069E-02  0.337163189906E-02  0.341793916553E-02  0.346482890571E-02
  0.351230844621E-02  0.356038520581E-02  0.360906669661E-02  0.365836052518E-02
  0.370827439378E-02  0.375881610155E-02  0.380999354576E-02  0.386181472296E-02
  0.391428773033E-02  0.396742076687E-02  0.402122213475E-02  0.407570024052E-02
  0.413086359651E-02  0.418672082210E-02  0.424328064509E-02  0.430055190307E-02
  0.435854354480E-02  0.441726463158E-02  0.447672433871E-02  0.453693195688E-02
  0.459789689366E-02  0.465962867494E-02  0.472213694645E-02  0.478543147521E-02
  0.484952215114E-02  0.491441898853E-02  0.498013212765E-02  0.504667183630E-02
  0.511404851145E-02  0.518227268084E-02  0.525135500465E-02  0.532130627711E-02
  0.539213742827E-02  0.546385952563E-02  0.553648377591E-02  0.561002152681E-02
  0.568448426874E-02  0.575988363667E-02  0.583623141189E-02  0.591353952390E-02
  0.599182005225E-02  0.607108522844E-02  0.615134743780E-02  0.623261922147E-02
  0.631491327834E-02  0.639824246701E-02  0.648261980784E-02  0.656805848497E-02
  0.665457184835E-02  0.674217341589E-02  0.683087687550E-02  0.692069608727E-02
  0.701164508565E-02  0.710373808160E-02  0.719698946483E-02  0.729141380607E-02
  0.738702585931E-02  0.748384056413E-02  0.758187304802E-02  0.768113862876E-02
  0.778165281679E-02  0.788343131767E-02  0.798649003449E-02  0.809084507039E-02
  0.819651273104E-02  0.830350952725E-02  0.841185217747E-02  0.852155761047E-02
  0.863264296794E-02  0.874512560720E-02  0.885902310388E-02  0.897435325471E-02
  0.909113408025E-02  0.920938382774E-02  0.932912097396E-02  0.945036422806E-02
  0.957313253456E-02  0.969744507626E-02  0.982332127723E-02  0.995078080590E-02
  0.100798435781E-01  0.102105297601E-01  0.103428597719E-01  0.104768542903E-01
  0.106125342523E-01  0.107499208582E-01  0.108890355748E-01  0.110299001391E-01
  0.111725365615E-01  0.113169671292E-01  0.114632144099E-01  0.116113012549E-01
  0.117612508030E-01  0.119130864843E-01  0.120668320234E-01  0.122225114433E-01
  0.123801490692E-01  0.125397695323E-01  0.127013977737E-01  0.128650590481E-01
  0.130307789280E-01  0.131985833073E-01  0.133684984058E-01  0.135405507732E-01
  0.137147672930E-01  0.138911751868E-01  0.140698020187E-01  0.142506756996E-01
  0.144338244913E-01  0.146192770113E-01  0.148070622367E-01  0.149972095095E-01
  0.151897485406E-01  0.153847094146E-01  0.155821225944E-01  0.157820189264E-01
  0.159844296447E-01  0.161893863764E-01  0.163969211464E-01  0.166070663825E-01
  0.168198549202E-01  0.170353200083E-01  0.172534953135E-01  0.174744149262E-01
  0.176981133656E-01  0.179246255849E-01  0.181539869773E-01  0.183862333807E-01
  0.186214010844E-01  0.188595268335E-01  0.191006478359E-01  0.193448017671E-01
  0.195920267767E-01  0.198423614941E-01  0.200958450347E-01  0.203525170056E-01
  0.206124175125E-01  0.208755871654E-01  0.211420670849E-01  0.214118989092E-01
  0.216851248001E-01  0.219617874495E-01  0.222419300867E-01  0.225255964845E-01
  0.228128309663E-01  0.231036784132E-01  0.233981842705E-01  0.236963945555E-01
  0.239983558641E-01  0.243041153784E-01  0.246137208740E-01  0.249272207272E-01
  0.252446639232E-01  0.255661000631E-01  0.258915793718E-01  0.262211527063E-01
  0.265548715629E-01  0.268927880861E-01  0.272349550758E-01  0.275814259965E-01
  0.279322549848E-01  0.282874968586E-01  0.286472071250E-01  0.290114419896E-01
  0.293802583648E-01  0.297537138790E-01  0.301318668852E-01  0.305147764706E-01
  0.309025024657E-01  0.312951054535E-01  0.316926467789E-01  0.320951885587E-01
  0.325027936906E-01  0.329155258640E-01  0.333334495691E-01  0.337566301072E-01
  0.341851336012E-01  0.346190270056E-01  0.350583781172E-01  0.355032555854E-01
  0.359537289234E-01  0.364098685184E-01  0.368717456431E-01  0.373394324669E-01
  0.378130020668E-01  0.382925284389E-01  0.387780865103E-01  0.392697521503E-01
  0.397676021828E-01  0.402717143977E-01  0.407821675637E-01  0.412990414402E-01
  0.418224167896E-01  0.423523753905E-01  0.428890000500E-01  0.434323746168E-01
  0.439825839942E-01  0.445397141537E-01  0.451038521478E-01  0.456750861243E-01
  0.462535053398E-01  0.468392001733E-01  0.474322621409E-01  0.480327839097E-01
  0.486408593125E-01  0.492565833623E-01  0.498800522672E-01  0.505113634455E-01
  0.511506155409E-01  0.517979084377E-01  0.524533432769E-01  0.531170224715E-01
  0.537890497227E-01  0.544695300360E-01  0.551585697381E-01  0.558562764926E-01
  0.565627593177E-01  0.572781286028E-01  0.580024961258E-01  0.587359750705E-01
  0.594786800447E-01  0.602307270973E-01  0.609922337374E-01  0.617633189518E-01
  0.625441032243E-01  0.633347085539E-01  0.641352584743E-01  0.649458780730E-01
  0.657666940112E-01  0.665978345428E-01  0.674394295353E-01  0.682916104897E-01
  0.691545105609E-01  0.700282645788E-01  0.709130090693E-01  0.718088822755E-01
  0.727160241794E-01  0.736345765238E-01  0.745646828343E-01  0.755064884420E-01
  0.764601405059E-01  0.774257880360E-01  0.784035819169E-01  0.793936749306E-01
  0.803962217814E-01  0.814113791191E-01  0.824393055643E-01  0.834801617324E-01
  0.845341102593E-01  0.856013158268E-01  0.866819451877E-01  0.877761671928E-01
  0.888841528162E-01  0.900060751832E-01  0.911421095962E-01  0.922924335631E-01
  0.934572268243E-01  0.946366713810E-01  0.958309515240E-01  0.970402538618E-01
  0.982647673506E-01  0.995046833228E-01  0.100760195518      0.102031500113    
  0.103318795750      0.104622283574      0.105942167256      0.107278653031    
  0.108631949728      0.110002268801      0.111389824366      0.112794833232    
  0.114217514934      0.115658091769      0.117116788830      0.118593834041    
  0.120089458193      0.121603894981      0.123137381040      0.124690155978    
  0.126262462420      0.127854546043      0.129466655613      0.131099043025    
  0.132751963343      0.134425674838      0.136120439033      0.137836520737    
  0.139574188092      0.141333712611      0.143115369224      0.144919436319    
  0.146746195784      0.148595933054      0.150468937156      0.152365500748    
  0.154285920174      0.156230495502      0.158199530577      0.160193333064    
  0.162212214499      0.164256490336      0.166326479998      0.168422506925    
  0.170544898625      0.172693986726      0.174870107027      0.177073599552    
  0.179304808601      0.181564082805      0.183851775180      0.186168243183    
  0.188513848766      0.190888958436      0.193293943307      0.195729179164    
  0.198195046517      0.200691930664      0.203220221746      0.205780314815    
  0.208372609891      0.210997512025      0.213655431364      0.216346783211    
  0.219071988098      0.221831471842      0.224625665619      0.227455006027    
  0.230319935156      0.233220900657      0.236158355812      0.239132759605    
  0.242144576791      0.245194277974      0.248282339676      0.251409244412    
  0.254575480767      0.257781543474      0.261027933484      0.264315158055    
  0.267643730820      0.271014171876      0.274427007862      0.277882772039    
  0.281382004380      0.284925251644      0.288513067473      0.292146012469    
  0.295824654287      0.299549567724      0.303321334803      0.307140544873    
  0.311007794690      0.314923688523      0.318888838236      0.322903863392    
  0.326969391348      0.331086057351      0.335254504637      0.339475384535    
  0.343749356567      0.348077088549      0.352459256697      0.356896545736    
  0.361389648999      0.365939268545      0.370546115259      0.375210908971    
  0.379934378565      0.384717262093      0.389560306889      0.394464269689    
  0.399429916748      0.404458023958      0.409549376970      0.414704771320    
  0.419925012548      0.425210916327      0.430563308590      0.435983025661    
  0.441470914379      0.447027832241      0.452654647524      0.458352239430    
  0.464121498221      0.469963325353      0.475878633625      0.481868347315    
  0.487933402329      0.494074746343      0.500293338955      0.506590151834    
  0.512966168867      0.519422386322      0.525959812996      0.532579470374    
  0.539282392792      0.546069627594      0.552942235301      0.559901289770    
  0.566947878369      0.574083102141      0.581308075980      0.588623928802    
  0.596031803724      0.603532858242      0.611128264410      0.618819209027    
  0.626606893818      0.634492535625      0.642477366596      0.650562634375    
  0.658749602304      0.667039549612      0.675433771621      0.683933579944    
  0.692540302694      0.701255284690      0.710079887664      0.719015490479    
  0.728063489341      0.737225298018      0.746502348061      0.755896089030    
  0.765407988713      0.775039533366      0.784792227937      0.794667596303    
  0.804667181512      0.814792546019      0.825045271933      0.835426961263    
  0.845939236169      0.856583739215      0.867362133628      0.878276103552    
  0.889327354317      0.900517612705      0.911848627216      0.923322168344    
  0.934940028853      0.946704024058      0.958615992105      0.970677794266    
  0.982891315221      0.995258463357       1.00778117107       1.02046139505    
   1.03330111661       1.04630234199       1.05946710266       1.07279745563    
   1.08629548379       1.09996329625       1.11380302863       1.12781684341    
   1.14200693028       1.15637550647       1.17092481710       1.18565713552    
   1.20057476370       1.21568003255       1.23097530228       1.24646296283    
   1.26214543416       1.27802516670       1.29410464169       1.31038637157    
   1.32687290040       1.34356680424       1.36047069153       1.37758720356    
   1.39491901480       1.41246883339       1.43023940152       1.44823349588    
   1.46645392809       1.48490354512       1.50358522976       1.52250190107    
   1.54165651481       1.56105206393       1.58069157903       1.60057812881    
   1.62071482060       1.64110480079       1.66175125536       1.68265741035    
   1.70382653241       1.72526192924       1.74696695017       1.76894498665    
   1.79119947280       1.81373388593       1.83655174708       1.85965662159    
   1.88305211964       1.90674189684       1.93072965474       1.95501914150    
   1.97961415239       2.00451853043       2.02973616699       2.05527100237    
   2.08112702643       2.10730827924       2.13381885167       2.16066288605    
   2.18784457681       2.21536817116       2.24323796970       2.27145832716    
   2.30003365301       2.32896841222       2.35826712589       2.38793437201    
   2.41797478615       2.44839306218       2.47919395302       2.51038227138    
   2.54196289048       2.57394074488       2.60632083116       2.63910820880    
   2.67230800087       2.70592539492       2.73996564373       2.77443406616    
   2.80933604797       2.84467704267       2.88046257236       2.91669822860    
   2.95338967328       2.99054263952       3.02816293255       3.06625643062    
   3.10482908590       3.14388692546       3.18343605215       3.22348264563    
   3.26403296324       3.30509334105       3.34667019483       3.38877002106    
   3.43139939791       3.47456498631       3.51827353097       3.56253186145    
   3.60734689319       3.65272562863       3.69867515830       3.74520266190    
   3.79231540945       3.84002076242       3.88832617485       3.93723919457    
   3.98676746434       4.03691872305       4.08770080694       4.13912165081    
   4.19118928928       4.24391185801       4.29729759502       4.35135484193    
   4.40609204530       4.46151775793       4.51764064021       4.57446946144    
   4.63201310124       4.69028055093       4.74928091491       4.80902341211    
   4.86951737741       4.93077226313       4.99279764046       5.05560320099    
   5.11919875822       5.18359424908       5.24879973551       5.31482540599    
   5.38168157716       5.44937869544       5.51792733865       5.58733821764    
   5.65762217801       5.72879020177       5.80085340907       5.87382305993    
   5.94771055600       6.02252744237       6.09828540931       6.17499629417    
   6.25267208318       6.33132491333       6.41096707430       6.49161101033    
   6.57326932220       6.65595476919       6.73968027107       6.82445891012    
   6.91030393317       6.99722875368       7.08524695384       7.17437228666    
   7.26461867816       7.35600022952       7.44853121930       7.54222610565    
   7.63709952858       7.73316631227       7.83044146735       7.92894019324    
   8.02867788059       8.12967011361       8.23193267253       8.33548153609    
   8.44033288402       8.54650309955       8.65400877199       8.76286669931    
   8.87309389081       8.98470756969       9.09772517582       9.21216436843    
   9.32804302888       9.44537926344       9.56419140615       9.68449802164    
   9.80631790805       9.92967010001       10.0545738715       10.1810487391    
   10.3091144647       10.4387910587       10.5700987836       10.7030581563    
   10.8376899520       10.9740152072       11.1120552230       11.2518315685    
   11.3933660840       11.5366808846       11.6817983634       11.8287411953    
   11.9775323406       12.1281950481       12.2807528591       12.4352296112    
   12.5916494416       12.7500367913       12.9104164086       13.0728133531    
   13.2372529997       13.4037610425       13.5723634986       13.7430867125    
   13.9159573601       14.0910024527       14.2682493416       14.4477257219    
   14.6294596371       14.8134794836       14.9998140148       15.1884923458    
   15.3795439581       15.5729987039       15.7688868108       15.9672388867    
   16.1680859247       16.3714593073       16.5773908122       16.7859126166    
   16.9970573024       17.2108578613       17.4273477003       17.6465606462    
   17.8685309515       18.0932932995       18.3208828098       18.5513350438    
   18.7846860100       19.0209721701       19.2602304441       19.5024982168    
   19.7478133429       19.9962141534       20.2477394615       20.5024285685    
   20.7603212700       21.0214578625       21.2858791489       21.5536264456    
   21.8247415887       22.0992669405       22.3772453962       22.6587203904    
   22.9437359041       23.2323364717       23.5245671876       23.8204737133    
   24.1201022849       24.4234997200       24.7307134251       25.0417914028    
   25.3567822598       25.6757352141       25.9987001026       26.3257273893    
   26.6568681729       26.9921741948       27.3316978472       27.6754921815    
   28.0236109161       28.3761084454       28.7330398477       29.0944608944    
   29.4604280583       29.8309985223       30.2062301890       30.5861816890    
   30.9709123906       31.3604824086       31.7549526142       32.1543846442    
   32.5588409106       32.9683846106       33.3830797362       33.8029910842    
   34.2281842669       34.6587257214       35.0946827207       35.5361233840    
   35.9831166873       36.4357324741       36.8940414668       37.3581152769    
   37.8280264169       38.3038483114       38.7856553086       39.2735226917    
   39.7675266911       40.2677444958       40.7742542659       41.2871351447    
   41.8064672707       42.3323317907       42.8648108721       43.4039877158    
   43.9499465693       44.5027727398       45.0625526075       45.6293736391    
   46.2033244017       46.7844945760       47.3729749712       47.9688575386    
   48.5722353860       49.1832027924       49.8018552227       50.4282893426    
   51.0626030337       51.7048954089       52.3552668275       53.0138189116    
   53.6806545611       54.3558779705       55.0395946449       55.7319114163    
   56.4329364607       57.1427793146       57.8615508925       58.5893635038    
